Wavelength,Flux,BestFit,SkyFlux
3800.144,29.142,9.620,0.000
3801.019,29.136,52.550,0.000
3801.894,29.130,51.287,0.000
3802.769,29.125,66.191,0.000
3803.645,29.119,64.533,0.000
3804.521,29.113,64.811,0.000
3805.397,29.107,65.218,0.000
3806.274,29.101,60.362,0.000
3807.150,29.095,55.777,0.000
3808.027,29.090,51.154,0.000
3808.904,29.084,55.828,0.000
3809.781,29.078,64.944,0.000
3810.658,29.072,69.630,0.000
3811.536,29.066,69.516,0.000
3812.414,29.061,67.658,0.000
3813.291,29.055,53.224,0.000
3814.170,29.049,46.379,0.000
3815.048,29.043,42.495,0.000
3815.926,29.038,35.751,0.000
3816.805,29.032,33.313,0.000
3817.684,29.026,44.803,0.000
3818.563,29.020,52.150,0.000
3819.443,29.015,47.922,0.000
3820.322,29.009,34.706,0.000
3821.202,29.003,22.993,0.000
3822.082,28.998,23.568,0.000
3822.962,28.992,37.064,0.000
3823.843,28.986,44.101,0.000
3824.723,28.981,34.601,0.000
3825.604,28.975,22.164,0.000
3826.485,28.970,14.841,4.355
3827.366,28.964,14.076,4.781
3828.247,33.440,19.044,5.506
3829.129,37.488,27.117,6.919
3830.011,41.550,32.796,8.376
3830.893,40.710,35.724,8.332
3831.775,45.431,34.808,7.284
3832.657,41.798,29.214,6.559
3833.540,33.052,22.075,6.697
3834.423,30.600,21.969,7.412
3835.306,32.318,26.327,7.975
3836.189,34.780,34.159,7.625
3837.072,44.889,40.179,5.901
3837.956,42.340,38.089,3.600
3838.840,39.887,27.608,2.624
3839.724,29.058,20.224,3.605
3840.608,30.896,18.176,4.826
3841.493,31.121,22.091,5.399
3842.377,32.843,34.767,5.496
3843.262,38.505,50.695,5.573
3844.147,42.808,59.969,5.721
3845.032,48.774,69.788,5.771
3845.918,58.629,65.404,5.217
3846.803,57.523,65.012,4.952
3847.689,57.899,66.962,4.749
3848.575,52.908,62.993,4.253
3849.462,49.591,54.481,3.631
3850.348,41.093,46.966,3.193
3851.235,39.759,44.274,3.195
3852.122,44.546,50.658,3.468
3853.009,48.825,57.122,3.732
3853.896,50.111,56.660,3.616
3854.784,43.441,51.749,3.190
3855.671,39.908,43.557,2.847
3856.559,38.263,37.847,2.765
3857.447,40.026,35.020,3.270
3858.336,32.425,33.240,3.637
3859.224,30.524,28.658,3.388
3860.113,25.788,19.708,2.476
3861.002,26.588,16.979,1.806
3861.891,31.727,27.156,2.142
3862.780,36.584,43.969,3.472
3863.670,47.376,58.542,4.775
3864.560,48.488,63.185,4.621
3865.449,45.276,56.747,3.237
3866.340,55.279,52.679,1.888
3867.230,48.813,53.517,1.541
3868.121,50.100,55.134,1.988
3869.011,52.706,54.620,2.485
3869.902,50.098,51.650,2.283
3870.793,44.843,46.408,1.406
3871.685,40.863,37.242,0.365
3872.576,41.207,32.159,-0.176
3873.468,42.716,31.841,-0.057
3874.360,45.580,43.670,0.788
3875.252,61.198,63.821,2.086
3876.145,69.907,74.169,3.225
3877.037,70.422,72.497,3.702
3877.930,57.108,56.171,3.498
3878.823,43.520,39.032,2.904
3879.717,39.404,36.063,2.421
3880.610,43.054,46.687,2.146
3881.504,48.664,53.515,1.779
3882.398,50.244,47.117,1.355
3883.292,49.484,45.038,0.945
3884.186,52.405,58.044,1.039
3885.080,66.018,68.844,1.504
3885.975,63.422,60.494,2.004
3886.870,50.377,40.698,2.232
3887.765,40.727,36.380,2.068
3888.660,42.790,42.057,1.739
3889.556,49.095,52.496,1.501
3890.451,56.892,67.788,1.247
3891.347,77.560,84.550,1.137
3892.243,90.326,95.909,1.517
3893.140,98.193,105.137,2.746
3894.036,91.639,102.682,4.281
3894.933,78.783,89.647,4.970
3895.830,70.481,80.505,4.313
3896.727,69.045,82.311,3.330
3897.625,71.903,87.343,2.945
3898.522,74.630,90.981,3.062
3899.420,71.796,81.040,2.946
3900.318,67.136,69.101,2.981
3901.216,71.766,70.883,4.431
3902.114,69.497,82.288,4.437
3903.013,67.340,81.906,4.966
3903.912,66.662,72.922,5.076
3904.811,69.876,69.660,3.034
3905.710,70.032,65.815,2.373
3906.609,63.995,61.140,3.856
3907.509,66.859,64.574,6.094
3908.409,77.406,82.455,7.271
3909.309,84.513,99.098,7.049
3910.209,98.420,103.069,7.186
3911.110,105.929,105.508,7.956
3912.010,100.449,108.381,8.700
3912.911,106.786,109.456,8.051
3913.812,108.607,111.142,6.500
3914.714,113.798,114.769,5.864
3915.615,113.346,106.969,6.107
3916.517,107.183,102.513,6.369
3917.419,99.292,99.512,6.154
3918.321,92.219,93.696,5.723
3919.223,90.382,88.619,5.611
3920.126,83.148,74.876,5.037
3921.029,59.155,61.189,3.774
3921.931,58.169,53.259,3.185
3922.835,58.368,52.822,3.477
3923.738,57.005,58.080,4.186
3924.642,66.855,64.845,4.871
3925.545,72.150,69.903,5.399
3926.449,68.659,67.688,5.448
3927.354,64.795,58.965,4.692
3928.258,56.889,45.173,3.534
3929.163,50.739,30.937,2.835
3930.067,47.889,23.120,3.011
3930.972,40.758,19.246,3.552
3931.878,33.699,12.963,3.423
3932.783,33.131,7.688,2.937
3933.689,29.401,3.368,2.340
3934.595,27.562,0.332,1.883
3935.501,25.853,2.027,1.905
3936.407,26.754,7.110,2.462
3937.314,35.128,15.738,3.011
3938.220,41.213,24.751,3.325
3939.127,54.892,35.525,3.740
3940.034,67.616,47.664,4.673
3940.942,68.548,55.757,5.195
3941.849,66.208,58.650,5.166
3942.757,65.611,57.514,4.878
3943.665,56.405,53.563,5.267
3944.573,48.651,45.884,5.967
3945.481,51.845,44.760,6.260
3946.390,63.703,64.895,6.125
3947.299,77.296,82.881,6.087
3948.208,78.681,85.592,6.834
3949.117,76.739,83.427,6.354
3950.026,83.855,89.303,5.035
3950.936,95.811,103.008,5.002
3951.846,106.293,110.920,5.895
3952.756,104.741,107.996,5.932
3953.666,99.983,98.919,4.985
3954.577,103.191,101.921,4.289
3955.487,109.052,110.665,4.615
3956.398,104.580,109.166,5.146
3957.309,89.377,95.206,5.132
3958.221,79.183,87.165,5.272
3959.132,84.617,91.572,5.538
3960.044,73.604,95.175,4.943
3960.956,70.984,83.692,3.507
3961.868,54.933,58.526,2.655
3962.780,41.109,39.130,2.799
3963.693,41.605,37.986,3.227
3964.606,48.149,42.902,3.173
3965.519,55.284,43.681,2.663
3966.432,56.294,36.263,2.072
3967.345,41.224,23.127,2.050
3968.259,37.022,11.159,2.603
3969.173,28.226,3.900,2.987
3970.087,27.002,3.565,3.132
3971.001,32.531,10.212,3.082
3971.915,44.896,21.035,3.186
3972.830,58.089,32.588,3.733
3973.745,64.333,43.335,4.618
3974.660,77.080,55.287,5.356
3975.575,94.776,69.560,5.359
3976.491,96.084,80.783,4.852
3977.407,105.752,89.789,5.068
3978.323,108.532,99.417,6.099
3979.239,121.628,109.042,6.384
3980.155,132.316,118.173,5.933
3981.072,139.821,133.081,5.158
3981.988,138.859,135.447,4.478
3982.905,137.909,128.298,4.753
3983.823,133.208,123.296,5.741
3984.740,127.868,122.578,6.231
3985.658,130.491,126.579,5.589
3986.576,131.820,130.030,4.546
3987.494,131.376,131.565,4.605
3988.412,137.848,140.325,5.523
3989.330,144.146,152.516,5.830
3990.249,141.212,148.140,5.630
3991.168,134.947,139.702,5.617
3992.087,135.846,142.880,5.376
3993.006,149.300,151.932,5.149
3993.926,158.263,157.118,5.160
3994.846,156.079,153.285,5.544
3995.766,154.578,144.039,5.835
3996.686,147.903,141.115,5.422
3997.606,136.794,133.024,5.440
3998.527,125.936,124.791,6.314
3999.447,139.598,129.008,6.073
4000.369,147.050,146.116,5.054
4001.290,166.935,158.502,4.442
4002.211,168.574,158.216,4.364
4003.133,166.211,167.932,5.033
4004.055,170.861,170.383,5.964
4004.977,159.471,153.522,5.578
4005.899,128.624,124.773,4.139
4006.822,112.444,107.704,4.319
4007.744,121.124,123.241,5.360
4008.667,146.637,144.967,5.359
4009.590,159.957,158.899,5.631
4010.514,161.381,163.289,6.447
4011.437,163.993,163.252,6.750
4012.361,166.920,166.094,7.013
4013.285,167.107,172.088,7.602
4014.209,167.223,168.943,7.599
4015.134,170.344,168.592,6.842
4016.058,176.158,174.620,5.998
4016.983,177.263,175.342,5.722
4017.908,160.890,160.960,5.844
4018.833,164.546,158.245,6.904
4019.759,175.159,166.983,8.124
4020.685,173.673,177.755,8.438
4021.610,181.194,176.549,7.508
4022.537,176.881,167.582,6.213
4023.463,173.785,171.665,6.380
4024.389,172.989,169.070,7.619
4025.316,159.190,162.064,8.270
4026.243,158.893,159.131,7.769
4027.170,171.332,163.574,6.905
4028.098,175.723,174.132,6.776
4029.025,183.817,184.648,6.741
4029.953,174.913,179.090,6.475
4030.881,143.425,151.289,5.756
4031.809,107.878,120.786,5.592
4032.738,90.181,104.205,5.687
4033.667,85.963,101.912,5.799
4034.596,82.220,102.136,5.814
4035.525,86.160,108.428,5.634
4036.454,114.086,133.258,5.945
4037.383,150.808,164.029,6.905
4038.313,170.802,188.467,6.754
4039.243,184.544,199.967,6.748
4040.173,185.520,195.186,6.947
4041.104,166.788,176.958,5.931
4042.034,162.364,166.891,5.761
4042.965,163.706,172.727,7.111
4043.896,156.011,170.875,8.581
4044.827,132.279,141.008,8.824
4045.759,95.138,96.853,9.541
4046.691,69.739,68.842,14.609
4047.622,71.492,77.813,20.241
4048.555,95.683,113.071,17.569
4049.487,123.736,148.489,12.775
4050.419,156.742,170.456,8.987
4051.352,178.141,185.445,7.344
4052.285,183.167,184.074,7.400
4053.218,179.767,179.295,7.174
4054.152,176.270,172.078,7.374
4055.085,166.096,163.558,7.957
4056.019,153.516,157.303,7.756
4056.953,153.209,154.821,6.505
4057.887,146.983,150.351,5.997
4058.822,135.893,138.798,6.586
4059.757,129.929,136.653,6.384
4060.692,144.283,152.623,6.553
4061.627,158.814,169.479,7.518
4062.562,152.079,155.173,7.878
4063.498,116.915,122.325,7.404
4064.433,86.315,88.079,7.414
4065.369,88.942,92.397,8.274
4066.305,113.957,119.636,8.582
4067.242,132.633,135.057,7.726
4068.178,140.259,139.018,7.579
4069.115,151.880,155.207,8.252
4070.052,163.723,173.675,8.342
4070.990,162.342,169.287,7.231
4071.927,130.449,135.976,6.083
4072.865,105.499,104.510,6.149
4073.803,120.233,121.211,6.489
4074.741,152.073,155.315,7.360
4075.679,170.975,167.059,8.096
4076.618,165.557,154.446,8.553
4077.557,141.204,134.954,9.592
4078.496,127.388,124.309,9.447
4079.435,137.063,128.231,8.148
4080.374,153.096,152.711,7.486
4081.314,191.181,180.549,6.798
4082.254,206.687,197.603,6.553
4083.194,197.130,198.705,6.697
4084.134,181.142,186.863,7.081
4085.075,166.830,172.240,6.977
4086.015,167.368,167.991,6.496
4086.956,179.042,177.415,6.755
4087.898,191.807,202.415,8.030
4088.839,216.241,226.479,8.147
4089.781,223.681,233.948,7.807
4090.722,216.689,229.759,7.104
4091.664,211.217,222.406,6.539
4092.607,194.025,212.699,6.536
4093.549,189.914,205.285,7.391
4094.492,201.558,208.995,7.143
4095.435,198.772,211.956,5.954
4096.378,176.021,185.265,5.465
4097.321,155.145,164.982,5.637
4098.265,147.802,163.248,5.720
4099.208,150.208,168.723,5.827
4100.152,158.930,171.749,5.873
4101.097,153.954,163.717,5.277
4102.041,141.215,140.714,4.521
4102.986,134.741,132.873,3.695
4103.931,152.096,148.277,3.532
4104.876,156.133,164.005,4.804
4105.821,158.265,175.764,5.742
4106.766,174.730,188.089,5.537
4107.712,183.347,194.466,5.306
4108.658,178.290,193.410,5.970
4109.604,176.130,189.637,6.630
4110.551,165.146,185.182,6.775
4111.497,158.167,180.787,5.711
4112.444,155.102,177.072,5.192
4113.391,156.745,177.036,5.790
4114.338,169.156,188.779,6.361
4115.286,179.673,195.794,6.564
4116.233,180.708,196.579,6.608
4117.181,183.952,198.790,6.499
4118.130,181.612,199.799,6.151
4119.078,167.674,185.107,5.692
4120.026,153.557,172.276,5.445
4120.975,153.531,171.892,5.058
4121.924,175.520,182.344,4.552
4122.873,164.509,186.076,5.822
4123.823,167.225,179.239,7.110
4124.772,166.808,185.928,6.939
4125.722,178.462,199.293,6.311
4126.672,186.480,198.679,6.105
4127.623,180.312,189.150,6.429
4128.573,170.927,179.434,6.575
4129.524,168.469,174.505,6.120
4130.475,167.895,174.372,5.920
4131.426,159.338,168.310,6.500
4132.378,142.053,150.160,5.723
4133.329,117.893,130.500,4.329
4134.281,111.622,123.159,6.430
4135.233,122.988,135.568,7.295
4136.185,151.861,162.233,5.670
4137.138,169.317,184.551,5.762
4138.091,178.914,188.093,6.919
4139.044,175.053,191.247,7.231
4139.997,174.698,196.732,7.116
4140.950,179.745,198.126,7.200
4141.904,173.766,194.129,6.868
4142.858,156.868,164.287,5.531
4143.812,115.041,122.813,4.201
4144.766,91.614,100.602,4.093
4145.720,104.222,112.908,4.931
4146.675,132.008,147.484,6.729
4147.630,148.159,172.314,7.735
4148.585,157.242,179.335,6.944
4149.540,153.730,175.734,5.466
4150.496,144.279,171.634,5.091
4151.452,140.455,171.002,5.965
4152.408,143.165,172.509,6.507
4153.364,145.053,172.037,5.898
4154.321,141.009,164.035,5.618
4155.277,134.247,158.503,6.907
4156.234,129.712,155.806,7.837
4157.191,132.226,158.013,6.742
4158.149,140.601,165.222,5.787
4159.106,145.700,172.259,6.794
4160.064,151.801,185.839,7.309
4161.022,161.778,192.241,6.801
4161.980,171.315,193.845,6.390
4162.939,184.500,202.223,6.469
4163.897,193.293,215.067,6.677
4164.856,184.827,210.433,7.227
4165.815,173.340,197.921,8.483
4166.775,156.123,187.014,9.016
4167.734,142.995,175.461,7.739
4168.694,143.706,167.667,6.973
4169.654,149.726,171.671,7.509
4170.614,164.711,185.237,7.888
4171.574,164.072,188.146,6.869
4172.535,148.177,166.687,6.973
4173.496,134.784,142.170,7.413
4174.457,131.651,135.794,6.132
4175.418,133.782,147.399,5.511
4176.380,139.672,155.856,6.853
4177.342,149.020,157.900,6.592
4178.304,146.016,160.907,5.754
4179.266,142.643,166.859,6.572
4180.228,155.191,177.165,7.423
4181.191,153.102,184.282,6.762
4182.154,146.983,172.707,6.052
4183.117,137.993,161.641,5.525
4184.080,141.199,162.444,5.052
4185.044,156.674,175.488,5.003
4186.007,170.069,186.204,5.707
4186.971,163.485,178.814,6.629
4187.936,136.519,154.618,6.033
4188.900,126.176,134.963,4.565
4189.865,139.247,154.405,4.569
4190.830,165.882,178.642,6.430
4191.795,160.862,180.268,6.351
4192.760,161.525,171.761,5.922
4193.725,172.220,187.420,6.668
4194.691,176.691,202.435,6.611
4195.657,169.971,190.017,5.420
4196.623,151.105,167.511,4.731
4197.590,133.834,153.760,4.753
4198.556,123.037,145.281,4.479
4199.523,113.976,127.290,4.169
4200.490,125.986,133.412,4.338
4201.458,136.668,138.007,5.101
4202.425,126.901,133.437,5.520
4203.393,123.749,133.299,5.658
4204.361,142.313,149.898,5.187
4205.329,162.971,174.347,5.077
4206.298,181.790,190.777,5.678
4207.266,195.918,198.823,6.117
4208.235,203.999,206.806,6.300
4209.204,203.509,212.193,6.379
4210.174,189.237,205.495,6.105
4211.143,169.752,188.976,5.946
4212.113,168.727,192.524,6.311
4213.083,182.950,202.732,6.173
4214.053,183.126,210.527,5.654
4215.023,171.780,200.010,5.543
4215.994,141.430,169.364,5.492
4216.965,136.338,151.927,5.323
4217.936,158.451,164.963,5.279
4218.907,186.130,185.581,5.598
4219.879,203.510,199.975,5.765
4220.851,205.251,206.182,6.121
4221.823,199.828,206.057,6.766
4222.795,190.446,197.854,6.254
4223.767,164.849,175.942,5.144
4224.740,135.467,148.244,4.414
4225.713,105.862,116.867,4.255
4226.686,74.842,79.927,4.246
4227.659,52.859,49.893,4.156
4228.633,55.384,58.354,3.921
4229.607,85.074,99.577,4.885
4230.581,119.519,142.664,6.212
4231.555,154.161,173.769,6.692
4232.530,180.672,188.500,6.690
4233.504,180.180,185.003,6.118
4234.479,163.457,168.308,5.887
4235.454,157.323,163.615,5.675
4236.430,152.790,157.393,4.998
4237.405,153.527,151.749,4.008
4238.381,158.392,156.825,3.930
4239.357,163.931,170.089,5.042
4240.333,167.047,172.934,5.353
4241.310,176.942,182.359,5.375
4242.287,194.336,197.208,5.393
4243.263,201.363,202.676,5.610
4244.241,208.888,203.417,5.695
4245.218,226.916,213.547,5.288
4246.196,237.505,227.579,5.385
4247.173,226.983,216.790,6.757
4248.152,205.260,192.363,7.355
4249.130,182.106,172.753,6.255
4250.108,161.901,155.073,4.480
4251.087,143.612,134.606,4.147
4252.066,127.844,130.768,5.137
4253.045,151.608,152.510,6.014
4254.025,153.339,163.601,5.576
4255.004,134.009,146.496,4.922
4255.984,124.294,128.266,5.123
4256.964,155.060,147.368,5.816
4257.945,197.286,195.333,5.949
4258.925,203.127,199.448,5.479
4259.906,179.230,176.422,5.201
4260.887,144.109,142.709,4.651
4261.868,128.784,124.410,4.341
4262.849,148.232,142.742,5.196
4263.831,195.412,184.541,5.696
4264.813,221.044,218.575,5.207
4265.795,229.162,232.919,5.539
4266.778,230.907,231.545,6.282
4267.760,222.517,219.278,6.296
4268.743,207.755,202.069,5.914
4269.726,193.225,188.688,5.649
4270.709,171.709,171.763,5.108
4271.693,135.978,131.169,4.366
4272.676,102.844,96.588,4.376
4273.660,98.459,93.521,4.815
4274.644,111.501,110.790,4.902
4275.629,110.722,111.582,5.057
4276.613,124.489,123.395,6.035
4277.598,158.315,160.184,6.038
4278.583,202.915,200.540,5.481
4279.569,227.627,216.379,5.295
4280.554,217.738,199.542,5.232
4281.540,197.247,176.098,5.097
4282.526,184.316,170.951,5.211
4283.512,181.579,171.796,5.529
4284.499,189.451,182.181,5.560
4285.485,197.806,189.144,5.428
4286.472,194.567,178.305,5.463
4287.459,190.497,166.807,5.797
4288.447,189.158,169.343,5.128
4289.434,168.914,159.779,4.083
4290.422,135.715,133.273,4.492
4291.410,121.615,114.762,4.935
4292.398,145.533,130.931,4.926
4293.387,173.074,169.431,4.910
4294.375,181.646,177.456,5.366
4295.364,174.586,166.134,5.863
4296.353,172.490,163.478,5.934
4297.343,182.939,167.397,5.436
4298.332,178.701,158.116,4.973
4299.322,152.671,132.624,5.235
4300.312,123.452,103.458,4.886
4301.303,117.813,91.482,3.018
4302.293,129.174,100.466,2.149
4303.284,135.992,113.350,2.892
4304.275,142.065,116.444,3.625
4305.266,145.984,120.740,3.768
4306.258,144.780,119.098,3.865
4307.249,127.787,108.472,3.915
4308.241,103.085,92.244,3.641
4309.233,89.549,77.465,3.643
4310.226,95.177,75.312,4.263
4311.218,116.585,93.439,4.889
4312.211,138.251,106.731,4.574
4313.204,150.829,125.238,4.572
4314.197,174.139,147.898,6.513
4315.191,187.550,168.228,7.287
4316.184,209.993,192.897,7.071
4317.178,254.068,239.962,6.886
4318.173,276.666,269.176,6.800
4319.167,280.571,271.352,7.121
4320.162,265.028,259.027,6.916
4321.157,256.734,252.442,6.634
4322.152,253.487,254.371,6.480
4323.147,240.901,236.351,5.663
4324.143,224.944,202.231,4.657
4325.138,172.066,155.471,3.989
4326.134,118.736,112.822,4.189
4327.131,104.215,100.680,5.543
4328.127,141.028,137.228,5.676
4329.124,208.277,204.290,5.215
4330.121,246.960,243.705,5.549
4331.118,260.463,252.972,5.478
4332.115,259.518,253.187,5.131
4333.113,267.164,255.812,5.338
4334.111,275.049,261.643,5.825
4335.109,282.077,270.892,5.868
4336.107,287.204,277.316,5.542
4337.106,270.285,265.058,5.525
4338.104,234.654,229.197,5.885
4339.103,202.176,192.131,5.578
4340.103,188.237,174.446,4.460
4341.102,180.236,162.863,4.066
4342.102,191.619,174.343,4.072
4343.102,225.705,204.028,3.759
4344.102,241.112,226.077,4.083
4345.102,235.524,234.243,4.862
4346.103,245.841,241.757,5.552
4347.104,253.942,255.139,6.203
4348.105,258.215,258.962,6.505
4349.106,269.747,259.852,6.320
4350.108,285.222,272.351,6.277
4351.109,281.683,271.873,6.425
4352.111,231.350,228.921,5.512
4353.114,184.746,178.169,4.583
4354.116,181.961,179.615,5.339
4355.119,208.412,207.030,5.655
4356.122,223.087,227.789,6.070
4357.125,232.272,237.309,10.762
4358.128,248.589,242.906,21.737
4359.132,252.695,236.732,30.511
4360.136,240.685,221.364,28.789
4361.140,242.166,222.317,19.939
4362.144,262.165,247.941,12.410
4363.149,274.247,267.049,8.953
4364.153,272.007,258.526,6.772
4365.158,273.899,265.347,5.389
4366.164,284.580,278.892,6.497
4367.169,294.808,272.485,6.715
4368.175,257.698,249.431,6.760
4369.181,247.635,233.965,6.304
4370.187,251.193,239.633,5.305
4371.193,242.773,243.584,5.791
4372.200,249.775,237.483,5.911
4373.207,246.900,234.257,5.738
4374.214,237.005,226.527,5.895
4375.221,215.970,206.471,5.876
4376.229,194.038,184.357,5.527
4377.236,192.407,187.598,5.588
4378.244,216.575,209.484,5.991
4379.253,242.643,231.436,5.888
4380.261,236.988,234.615,5.259
4381.270,219.014,224.155,5.801
4382.279,198.684,208.260,6.244
4383.288,158.689,166.906,4.941
4384.297,109.079,108.375,3.883
4385.307,86.663,83.070,4.016
4386.317,122.365,115.569,4.652
4387.327,177.020,173.606,5.415
4388.337,204.668,207.392,5.470
4389.348,207.646,214.362,5.456
4390.359,206.357,206.616,5.883
4391.370,207.849,202.930,5.560
4392.381,217.524,210.577,4.880
4393.392,230.283,224.487,5.385
4394.404,229.401,232.659,6.035
4395.416,230.851,227.674,5.521
4396.428,233.891,224.474,5.171
4397.441,259.806,240.285,5.898
4398.453,285.809,263.301,6.462
